Raman_shift_cm-1	Intensity
600	0.0048525093
601	0.0047114348
602	0.004579749
603	0.0044574518
604	0.004312386
605	0.0042120882
606	0.004185714
607	0.004200408
608	0.0042389267
609	0.004249551
610	0.0041704429
611	0.0040263777
612	0.0038519062
613	0.0036816922
614	0.0035409349
615	0.0034427306
616	0.0034073311
617	0.0034255193
618	0.0034633999
619	0.0034917695
620	0.0034935809
621	0.0034616066
622	0.003377001
623	0.0032510723
624	0.0031116881
625	0.0030004698
626	0.0029510088
627	0.002928973
628	0.002917134
629	0.002901787
630	0.0028527607
631	0.0027691224
632	0.0026595186
633	0.0025492145
634	0.0024436723
635	0.0023694543
636	0.0023688155
637	0.0024060127
638	0.0024413143
639	0.0024223482
640	0.0022815207
641	0.0021384447
642	0.0021347698
643	0.0021432127
644	0.0020406414
645	0.0018825321
646	0.0017105995
647	0.0016099434
648	0.0016809428
649	0.001743492
650	0.0016198457
651	0.0014384071
652	0.0013048246
653	0.0012225347
654	0.0012229279
655	0.001198846
656	0.0010404586
657	0.00085932093
658	0.00073292301
659	0.00067613199
660	0.00072917815
661	0.00079094125
662	0.00076582164
663	0.00066068345
664	0.00047015747
665	0.00026192638
666	0.00010597091
667	-2.7981972e-06
668	-5.5171912e-05
669	-8.0337899e-05
670	-0.00011135759
671	-0.00017036813
672	-0.0003009408
673	-0.0004397498
674	-0.00051613205
675	-0.00056479579
676	-0.00061401551
677	-0.00068914786
678	-0.00083475573
679	-0.00095472128
680	-0.00095911858
681	-0.00091987143
682	-0.00091717734
683	-0.00092649739
684	-0.00093563788
685	-0.00092285037
686	-0.00088938545
687	-0.00084798028
688	-0.00082352327
689	-0.0007456235
690	-0.00058210325
691	-0.00035697898
692	-0.00015218403
693	0.00014610859
694	0.00057274273
695	0.0011620944
696	0.0018588192
697	0.0026841027
698	0.0035656195
699	0.0045767382
700	0.0056426214
701	0.006882853
702	0.008292009
703	0.0099583163
704	0.01180164
705	0.013874883
706	0.016060393
707	0.018496003
708	0.021140267
709	0.02400122
710	0.02693964
711	0.030039467
712	0.033237894
713	0.036594943
714	0.040074149
715	0.043659238
716	0.047273298
717	0.050908134
718	0.05457315
719	0.058137707
720	0.061535151
721	0.064697802
722	0.067719385
723	0.070474642
724	0.073058846
725	0.075250487
726	0.077135137
727	0.078558328
728	0.079695841
729	0.08030705
730	0.08054767
731	0.080243837
732	0.079606384
733	0.078454226
734	0.076984916
735	0.075073811
736	0.072933643
737	0.070432513
738	0.067723567
739	0.064720109
740	0.061562458
741	0.058192072
742	0.054695248
743	0.051088052
744	0.047480358
745	0.043881406
746	0.040313355
747	0.036806754
748	0.033344069
749	0.030037136
750	0.026900168
751	0.023958637
752	0.021090055
753	0.018450451
754	0.016030304
755	0.013894652
756	0.011933081
757	0.01018369
758	0.0085163728
759	0.0070537397
760	0.005745661
761	0.0046280501
762	0.003620954
763	0.0027612426
764	0.001955596
765	0.0012623648
766	0.00062892226
767	0.00014233636
768	-0.00020081117
769	-0.00041710428
770	-0.000595941
771	-0.00071268136
772	-0.00081169437
773	-0.00086290682
774	-0.00086523079
775	-0.00085622077
776	-0.00090805174
777	-0.00095149201
778	-0.00091638292
779	-0.00084905674
780	-0.00083180732
781	-0.00081393933
782	-0.00075047823
783	-0.0006094686
784	-0.0003633808
785	-0.00015892693
786	-0.00013916756
787	-0.00017339984
788	-0.00016040976
789	-9.5967294e-05
790	5.9846978e-05
791	0.00022221854
792	0.00029268056
793	0.00033618717
794	0.00042061256
795	0.00051339894
796	0.00058164665
797	0.00061674357
798	0.00062408366
799	0.00064786053
800	0.00070214235
801	0.00078380333
802	0.00091661359
803	0.001069823
804	0.0011903492
805	0.0012596481
806	0.0012677053
807	0.0012830309
808	0.0013646355
809	0.0014554894
810	0.0015197842
811	0.0015821264
812	0.0016483845
813	0.0017144398
814	0.001780248
815	0.0018543227
816	0.00194673
817	0.0020302173
818	0.0020818462
819	0.0021131196
820	0.0021329458
821	0.0021552256
822	0.0021969217
823	0.0022498906
824	0.0023064504
825	0.002365659
826	0.0024184197
827	0.0024757135
828	0.0025429077
829	0.0026199018
830	0.0027131841
831	0.0027945518
832	0.0028341692
833	0.0028507718
834	0.0028679978
835	0.0028884373
836	0.0029273375
837	0.0029484874
838	0.0029096331
839	0.0028715687
840	0.0029010444
841	0.0029543036
842	0.0029922824
843	0.002995068
844	0.0029136822
845	0.0028724369
846	0.0029943767
847	0.0031767773
848	0.0033247707
849	0.0034130665
850	0.0034040393
851	0.0033753014
852	0.0034035224
853	0.0034362887
854	0.0034520642
855	0.0034504995
856	0.0034283424
857	0.0033886863
858	0.0033270855
859	0.0032830649
860	0.0032961782
861	0.0033449418
862	0.0034007276
863	0.0034520947
864	0.0034854785
865	0.0035075487
866	0.0035199173
867	0.0035121705
868	0.003489671
869	0.0034560266
870	0.0034089462
871	0.0033612918
872	0.0033345662
873	0.0033259989
874	0.0033264319
875	0.0033194864
876	0.003280821
877	0.0032549556
878	0.003288173
879	0.0033234673
880	0.003314232
881	0.0032595365
882	0.0031458581
883	0.0030397484
884	0.0030156843
885	0.0030207168
886	0.0030124898
887	0.0029754675
888	0.0028906716
889	0.0027886157
890	0.0026938489
891	0.0026022438
892	0.0025215728
893	0.0024512636
894	0.0023896398
895	0.002317581
896	0.0022054242
897	0.0020970464
898	0.0020366626
899	0.0019949315
900	0.0019262559
901	0.0018613971
902	0.0018457157
903	0.0018355557
904	0.0017788629
905	0.0016628099
906	0.0014860371
907	0.0013171296
908	0.0012148034
909	0.0011277728
910	0.0010402144
911	0.00093302463
912	0.0007496959
913	0.00055420011
914	0.00041341725
915	0.00033950573
916	0.00032725728
917	0.00032115553
918	0.00027835302
919	0.00021594667
920	0.00013120717
921	5.260747e-07
922	-0.00017667667
923	-0.00036198979
924	-0.00052286163
925	-0.00067510922
926	-0.00082525785
927	-0.00095545448
928	-0.0010610266
929	-0.0011624174
930	-0.0013037329
931	-0.0014194631
932	-0.0014505882
933	-0.0014451565
934	-0.001466614
935	-0.0015102352
936	-0.0015944336
937	-0.0016411856
938	-0.0015999101
939	-0.0015068111
940	-0.0014221087
941	-0.0012892591
942	-0.0010911055
943	-0.00083755621
944	-0.0005753202
945	-0.00028887982
946	-4.0953813e-06
947	0.00034082898
948	0.00076645596
949	0.0012578333
950	0.0017429841
951	0.0023084602
952	0.0029671672
953	0.0037634694
954	0.0046790817
955	0.0056865134
956	0.0066820239
957	0.007746767
958	0.0088717945
959	0.010116698
960	0.01145704
961	0.012939709
962	0.014531253
963	0.016256593
964	0.018052339
965	0.01993204
966	0.021815312
967	0.023800784
968	0.025896171
969	0.02814068
970	0.030505494
971	0.032978284
972	0.035485333
973	0.038033649
974	0.040551901
975	0.04312399
976	0.045807358
977	0.048566429
978	0.051364871
979	0.054119589
980	0.056759376
981	0.059322178
982	0.061854751
983	0.064352102
984	0.066878158
985	0.069361287
986	0.071794494
987	0.074105541
988	0.076317328
989	0.078365829
990	0.080299396
991	0.082031027
992	0.083623137
993	0.085019474
994	0.086318741
995	0.08741221
996	0.088369949
997	0.089095581
998	0.089675849
999	0.089995189
1000	0.090145234
1001	0.090006778
1002	0.08965736
1003	0.089037371
1004	0.08827831
1005	0.087322467
1006	0.086312123
1007	0.085091665
1008	0.083681207
1009	0.082023306
1010	0.080208022
1011	0.078217736
1012	0.076175533
1013	0.07400754
1014	0.071765055
1015	0.069414429
1016	0.067017565
1017	0.064518635
1018	0.061935895
1019	0.059263815
1020	0.056539804
1021	0.053805856
1022	0.051140651
1023	0.048498875
1024	0.045842031
1025	0.043188953
1026	0.040536723
1027	0.03793759
1028	0.035416994
1029	0.032957749
1030	0.030483774
1031	0.028106757
1032	0.025861342
1033	0.023784577
1034	0.021847065
1035	0.02000712
1036	0.018132604
1037	0.016335325
1038	0.014645506
1039	0.013069811
1040	0.011538995
1041	0.010099485
1042	0.0087165184
1043	0.0074748138
1044	0.0063635242
1045	0.00537917
1046	0.0044360408
1047	0.0036061858
1048	0.0028595561
1049	0.0022295255
1050	0.0016855722
1051	0.0012229241
1052	0.00078256253
1053	0.00036284229
1054	-0.0001152881
1055	-0.00052506665
1056	-0.00077790737
1057	-0.00091197356
1058	-0.0009992329
1059	-0.0010812079
1060	-0.001241089
1061	-0.0013841218
1062	-0.0014626698
1063	-0.0014934231
1064	-0.001487676
1065	-0.0014632853
1066	-0.0014714995
1067	-0.0014799581
1068	-0.0014718749
1069	-0.0014295689
1070	-0.0013593355
1071	-0.001264876
1072	-0.0011598611
1073	-0.0010261436
1074	-0.00086703917
1075	-0.00070896542
1076	-0.00057253218
1077	-0.00045828097
1078	-0.00037928223
1079	-0.00031680026
1080	-0.00024849654
1081	-0.00015675803
1082	-2.8298553e-05
1083	0.00011206711
1084	0.00023898626
1085	0.00036309985
1086	0.00048428953
1087	0.00059766522
1088	0.00069415122
1089	0.00079478489
1090	0.00091660159
1091	0.0010543507
1092	0.0012061043
1093	0.0013487252
1094	0.0014574604
1095	0.001545335
1096	0.0016227872
1097	0.0017006267
1098	0.0017926072
1099	0.0018916913
1100	0.0020000725
1101	0.0020974963
1102	0.0021670436
1103	0.0022064383
1104	0.0022103756
1105	0.0022146375
1106	0.0022575844
1107	0.0023240582
1108	0.0023838198
1109	0.0024675235
1110	0.0025939415
1111	0.0027584242
1112	0.0029728946
1113	0.0031302416
1114	0.0031304709
1115	0.0030412314
1116	0.0029153901
1117	0.0028367446
1118	0.0029033075
1119	0.0030415486
1120	0.0031922081
1121	0.0033126042
1122	0.0033185065
1123	0.0033077154
1124	0.0033948889
1125	0.0035006523
1126	0.0035589001
1127	0.003549411
1128	0.0034365934
1129	0.0033637341
1130	0.0034726285
1131	0.0036364256
1132	0.0037589207
1133	0.0038112573
1134	0.0037256711
1135	0.0036300578
1136	0.0036605931
1137	0.0037481864
1138	0.0038317825
1139	0.0038952134
1140	0.0039286284
1141	0.0039499264
1142	0.0039693138
1143	0.0039462585
1144	0.0038538887
1145	0.0037713876
1146	0.0037638311
1147	0.0038015708
1148	0.0038689228
1149	0.0039394578
1150	0.0039706443
1151	0.0039785038
1152	0.0039771873
1153	0.0039754887
1154	0.0039939067
1155	0.0039973958
1156	0.0039524002
1157	0.0038994317
1158	0.003861328
1159	0.0038708028
1160	0.0039644807
1161	0.0040851003
1162	0.0041685107
1163	0.0042211809
1164	0.0042389446
1165	0.0042530572
1166	0.0043036333
1167	0.0043465319
1168	0.0043619506
1169	0.0043393362
1170	0.0042586355
1171	0.0041724266
1172	0.0041356683
1173	0.0041457677
1174	0.0042181008
1175	0.0042727707
1176	0.004214987
1177	0.0041266252
1178	0.004082205
1179	0.0040802573
1180	0.004133266
1181	0.0041718838
1182	0.0041196877
1183	0.0040601655
1184	0.0040566118
1185	0.0040968583
1186	0.0041805822
1187	0.004263268
1188	0.0043061186
1189	0.00430831
1190	0.0042666895
1191	0.004196261
1192	0.0041129253
1193	0.0040548979
1194	0.0040645302
1195	0.0041139956
1196	0.0041721314
1197	0.0042243648
1198	0.0042468086
1199	0.0042589496
1200	0.0042785791
1201	0.0042901909
1202	0.0042840726
1203	0.0042744074
1204	0.0042705848
1205	0.0042849032
1206	0.0043446415
1207	0.0043946972
1208	0.0043750562
1209	0.0043216737
1210	0.0042624158
1211	0.0042399091
1212	0.0043047567
1213	0.0043829518
1214	0.004398034
1215	0.0043954654
1216	0.0044101879
1217	0.0044397518
1218	0.0044872887
1219	0.0045208183
1220	0.0045180995
1221	0.0045016389
1222	0.0044895791
1223	0.0044733081
1224	0.0044455417
1225	0.0044346942
1226	0.0044726657
1227	0.0045234473
1228	0.0045440966
1229	0.0045502396
1230	0.0045499273
1231	0.0045700212
1232	0.0046465952
1233	0.0047115965
1234	0.0046964648
1235	0.0046549731
1236	0.0046339503
1237	0.0046441584
1238	0.0047247165
1239	0.0047748439
1240	0.0046774092
1241	0.0045534531
1242	0.0045248378
1243	0.0045623165
1244	0.004642502
1245	0.0046956184
1246	0.0046541552
1247	0.0046058033
1248	0.0046191461
1249	0.0046390117
1250	0.0046101361
1251	0.0046062745
1252	0.0046985079
1253	0.0048260683
1254	0.0049273766
1255	0.00497918
1256	0.0049557693
1257	0.0049251244
1258	0.0049591429
1259	0.0049929133
1260	0.0049819509
1261	0.0049512139
1262	0.0049109322
1263	0.0048911715
1264	0.00492119
1265	0.0049788958
1266	0.0050403859
1267	0.0050999426
1268	0.0051488082
1269	0.0051816764
1270	0.0051942674
1271	0.0051865571
1272	0.0051657208
1273	0.0051435137
1274	0.00513339
1275	0.0051312455
1276	0.005117266
1277	0.005137194
1278	0.0052510945
1279	0.0053728557
1280	0.0054202401
1281	0.0053837099
1282	0.0052360781
1283	0.0051105849
1284	0.0051532455
1285	0.0052489471
1286	0.0052936992
1287	0.0053003213
1288	0.0052688314
1289	0.0052409079
1290	0.0052488073
1291	0.0052535967
1292	0.0052472598
1293	0.0052262627
1294	0.0051524717
1295	0.0050833847
1296	0.005094324
1297	0.0051569282
1298	0.0052412578
1299	0.0052726665
1300	0.0051753957
1301	0.0050631991
1302	0.0050319365
1303	0.0050382606
1304	0.0050735532
1305	0.0050922409
1306	0.0050355004
1307	0.0049429646
1308	0.0048453646
1309	0.0047768838
1310	0.0047822554
1311	0.0047998328
1312	0.0047739802
1313	0.0047174691
1314	0.0046283949
1315	0.0045399947
1316	0.0044896049
1317	0.0044539985
1318	0.0044084982
1319	0.0043652784
1320	0.0043316709
1321	0.0043061298
1322	0.0042907626
1323	0.0042516915
1324	0.0041626553
1325	0.0040431928
1326	0.0039100138
1327	0.0037801556
1328	0.0036697505
1329	0.0035888306
1330	0.0035366289
1331	0.0035157371
1332	0.0035303504
1333	0.0035338592
1334	0.0034759389
1335	0.0033664548
1336	0.0032028183
1337	0.0030550671
1338	0.0030145208
1339	0.0029908582
1340	0.0028883967
1341	0.0027516758
1342	0.0026330773
1343	0.0025256426
1344	0.0024187777
1345	0.0022707354
1346	0.0020512025
1347	0.0018447295
1348	0.0017175158
1349	0.0016157461
1350	0.0014968318
1351	0.0013803392
1352	0.0012701895
1353	0.0011520656
1354	0.0010038822
1355	0.00085178647
1356	0.00072820742
1357	0.0006087441
1358	0.00046832644
1359	0.00030217811
1360	0.00010464262
1361	-8.7512957e-05
1362	-0.00024588439
1363	-0.00039045253
1364	-0.00053633463
1365	-0.00068006172
1366	-0.00083278564
1367	-0.00098779562
1368	-0.0011445523
1369	-0.001291848
1370	-0.001439975
1371	-0.0015604541
1372	-0.001638278
1373	-0.0016735772
1374	-0.0016922485
1375	-0.0016954229
1376	-0.0017005181
1377	-0.0016908658
1378	-0.0016605438
1379	-0.0016432503
1380	-0.0016960029
1381	-0.0017349826
1382	-0.0016919141
1383	-0.0015810817
1384	-0.0014464037
1385	-0.0012819065
1386	-0.001136133
1387	-0.00089877429
1388	-0.00050422961
1389	-2.705205e-05
1390	0.00042617296
1391	0.00087954407
1392	0.0012909646
1393	0.0017648872
1394	0.0023375216
1395	0.0030463027
1396	0.0038819123
1397	0.0048380639
1398	0.0058310258
1399	0.0068833217
1400	0.007944266
1401	0.0090769914
1402	0.010275157
1403	0.011564225
1404	0.012911562
1405	0.014361332
1406	0.015885441
1407	0.017508675
1408	0.01918877
1409	0.020955623
1410	0.02275578
1411	0.024657893
1412	0.026665002
1413	0.028788333
1414	0.030976725
1415	0.03322772
1416	0.035471441
1417	0.037786534
1418	0.040191607
1419	0.042687689
1420	0.04524476
1421	0.047844499
1422	0.050447864
1423	0.053041826
1424	0.055590086
1425	0.058127465
1426	0.060686893
1427	0.063281297
1428	0.065949816
1429	0.068598323
1430	0.071165369
1431	0.073636978
1432	0.076037571
1433	0.078357305
1434	0.080669217
1435	0.082875588
1436	0.084971541
1437	0.086924881
1438	0.088783664
1439	0.090541192
1440	0.092328569
1441	0.093964614
1442	0.095396652
1443	0.096580383
1444	0.097606712
1445	0.09846465
1446	0.099296153
1447	0.099949724
1448	0.10045997
1449	0.10074767
1450	0.10089394
1451	0.10078521
1452	0.10048983
1453	0.09995435
1454	0.099286338
1455	0.098444389
1456	0.09755783
1457	0.096519397
1458	0.09536818
1459	0.094028033
1460	0.092575325
1461	0.090928591
1462	0.089122048
1463	0.08714487
1464	0.085107795
1465	0.083006669
1466	0.080955093
1467	0.078790873
1468	0.076442625
1469	0.073949034
1470	0.071398371
1471	0.068814026
1472	0.066307138
1473	0.063755411
1474	0.061041193
1475	0.058314048
1476	0.055729997
1477	0.053262257
1478	0.050887955
1479	0.04848835
1480	0.045935662
1481	0.043372693
1482	0.040891179
1483	0.038474691
1484	0.036105438
1485	0.033812806
1486	0.03157748
1487	0.029416025
1488	0.02728348
1489	0.025233393
1490	0.023257337
1491	0.021384908
1492	0.019567067
1493	0.017857327
1494	0.016244185
1495	0.01474343
1496	0.013282872
1497	0.01190512
1498	0.010587514
1499	0.0093753866
1500	0.0082335706
1501	0.0071702884
1502	0.0061185693
1503	0.0051832892
1504	0.0043974734
1505	0.0037203399
1506	0.0030588577
1507	0.0024281437
1508	0.0017731957
1509	0.0011739213
1510	0.00066402141
1511	0.00022693088
1512	-0.00021843392
1513	-0.00057978436
1514	-0.00081541311
1515	-0.00093803838
1516	-0.0009905725
1517	-0.0010671756
1518	-0.001321159
1519	-0.0015711502
1520	-0.0016538861
1521	-0.0016573349
1522	-0.0016845583
1523	-0.0017350335
1524	-0.0018302626
1525	-0.0018764921
1526	-0.0018213432
1527	-0.0017434973
1528	-0.0017165829
1529	-0.0016788642
1530	-0.0016078467
1531	-0.0015259032
1532	-0.0014706862
1533	-0.0013902694
1534	-0.0012371417
1535	-0.0010693982
1536	-0.00095590932
1537	-0.00088450604
1538	-0.00085322176
1539	-0.00080611049
1540	-0.00069973839
1541	-0.00057128147
1542	-0.00044637896
1543	-0.00032475633
1544	-0.00022168547
1545	-0.00014354563
1546	-9.842521e-05
1547	-5.6770715e-05
1548	9.6498354e-06
1549	8.4260484e-05
1550	0.00015312673
1551	0.00021683417
1552	0.00027195938
1553	0.00032017729
1554	0.00035168875
1555	0.00038766406
1556	0.00046322947
1557	0.00053415815
1558	0.00055110846
1559	0.00052791856
1560	0.00049383161
1561	0.00045327881
1562	0.00040351504
1563	0.00033837217
1564	0.00025460465
1565	0.00020927622
1566	0.00023963167
1567	0.00029885637
1568	0.0003581496
1569	0.00038586732
1570	0.00031780955
1571	0.00022170404
1572	0.00018412132
1573	0.00017517203
1574	0.00017293892
1575	0.00012227522
1576	-4.5564898e-05
1577	-0.00019036515
1578	-0.00017962262
1579	-0.00011660939
1580	-0.00010078946
1581	-0.00011765957
1582	-0.00016771876
1583	-0.00020918634
1584	-0.0002044528
1585	-0.00021492788
1586	-0.00028831473
1587	-0.00037422551
1588	-0.00043977589
1589	-0.00048407418
1590	-0.00051038066
1591	-0.00050595012
1592	-0.00047460418
1593	-0.00041485845
1594	-0.00034976501
1595	-0.00026332774
1596	-0.00016002003
1597	-2.7572801e-05
1598	0.00011771841
1599	0.00029544158
1600	0.00050938123
1601	0.00075852121
1602	0.00098870514
1603	0.0012721865
1604	0.0016334483
1605	0.0021209748
1606	0.0027497698
1607	0.0034249259
1608	0.0039958175
1609	0.0045758718
1610	0.0052009336
1611	0.0059518296
1612	0.0068677398
1613	0.0078943605
1614	0.0089286214
1615	0.010008275
1616	0.011088707
1617	0.012238328
1618	0.013452389
1619	0.014791475
1620	0.016252499
1621	0.01784468
1622	0.019502303
1623	0.021241867
1624	0.023022375
1625	0.02484863
1626	0.026686471
1627	0.028522866
1628	0.030335783
1629	0.032139022
1630	0.033930164
1631	0.035731827
1632	0.037584454
1633	0.039449429
1634	0.041293328
1635	0.043094696
1636	0.044878472
1637	0.046593184
1638	0.048233579
1639	0.049740256
1640	0.051130595
1641	0.052425293
1642	0.053747029
1643	0.05493739
1644	0.055960942
1645	0.056777101
1646	0.057470822
1647	0.05798093
1648	0.05840857
1649	0.058607345
1650	0.058577549
1651	0.058343354
1652	0.058072734
1653	0.057674868
1654	0.057207864
1655	0.056559479
1656	0.055753293
1657	0.054769575
1658	0.053708972
1659	0.052480766
1660	0.051118105
1661	0.049619322
1662	0.048091444
1663	0.046469718
1664	0.044771184
1665	0.042979065
1666	0.041135956
1667	0.039265346
1668	0.037440403
1669	0.03558062
1670	0.033624036
1671	0.03164488
1672	0.029712543
1673	0.027844141
1674	0.026050449
1675	0.02429311
1676	0.022498029
1677	0.020758962
1678	0.019115837
1679	0.017569153
1680	0.016073167
1681	0.014649577
1682	0.013263738
1683	0.01195649
1684	0.010711877
1685	0.0095271642
1686	0.0083282473
1687	0.0072227784
1688	0.0062402647
1689	0.0054148541
1690	0.0047192611
1691	0.0041153752
1692	0.0034971553
1693	0.0029177256
1694	0.0023707035
1695	0.0018673803
1696	0.0013801699
1697	0.00093447833
1698	0.00051845615
1699	0.00017101164
1700	-0.00011585397
1701	-0.00033441584
1702	-0.00051221269
1703	-0.00063859293
1704	-0.0007486328
1705	-0.00082677621
1706	-0.00087546844
1707	-0.00090623411
1708	-0.00097087035
1709	-0.0010159443
1710	-0.00098735834
1711	-0.00091647013
1712	-0.0008638751
1713	-0.00082568275
1714	-0.00079854423
1715	-0.00073992942
1716	-0.00063360655
1717	-0.00052676111
1718	-0.00045136656
1719	-0.00037186161
1720	-0.00026009785
1721	-0.00017889202
1722	-0.00019418941
1723	-0.00021342375
1724	-0.0001578409
1725	-3.5750117e-05
1726	0.00016461909
1727	0.00034577487
1728	0.00038675934
1729	0.00039475695
1730	0.00047356116
1731	0.00059347108
1732	0.0007458407
1733	0.00085288098
1734	0.00083175852
1735	0.00080084868
1736	0.00085440262
1737	0.00097227063
1738	0.0011698182
1739	0.0013510759
1740	0.0014089023
1741	0.0013979736
1742	0.0013541223
1743	0.001350619
1744	0.0014587601
1745	0.0016289121
1746	0.0018248087
1747	0.0020146914
1748	0.0021514479
1749	0.0022362136
1750	0.0022743043
1751	0.0022920633
1752	0.0023226558
1753	0.0023645573
1754	0.0024300991
1755	0.0025087613
1756	0.0025864529
1757	0.0026558905
1758	0.0026923293
1759	0.0027482513
1760	0.0028848035
1761	0.0030367825
1762	0.0031396616
1763	0.0031954116
1764	0.0032050271
1765	0.0032191916
1766	0.0032868931
1767	0.0033653621
1768	0.0034194343
1769	0.0034842049
1770	0.0035721227
1771	0.0036895336
1772	0.0038644011
1773	0.004017829
1774	0.0040651825
1775	0.0040487213
1776	0.0040067248
1777	0.0040023509
1778	0.0041078379
1779	0.0042394472
1780	0.0043192383
1781	0.0043852223
1782	0.0044496198
1783	0.0045319766
1784	0.0046502925
1785	0.0047840204
1786	0.0049288557
1787	0.0050472574
1788	0.0050887388
1789	0.0051015895
1790	0.0051350884
1791	0.0052094376
1792	0.0053591349
1793	0.0055019152
1794	0.0055623346
1795	0.0055819645
1796	0.0055883069
1797	0.005605805
1798	0.0056610367
1799	0.0057423707
1800	0.0058498069
